# trajectory
# s[mm] rx[mm] ry[mm] rz[mm] px[rad] py[rad] pz[rad]
0.0000000000000000e+00 +0.0000000000000000e+00 +0.0000000000000000e+00 +0.0000000000000000e+00 +0.0000000000000000e+00 +0.0000000000000000e+00 +1.0000000000000000e+00
5.0000000000000003e-02 -4.0562696808120327e-07 +0.0000000000000000e+00 +4.9999999997806230e-02 -1.6225061528734640e-05 +0.0000000000000000e+00 +9.9999999986837373e-01
1.0000000000000001e-01 -1.6225027238934181e-06 +0.0000000000000000e+00 +9.9999999982449933e-02 -3.2449917437743465e-05 +0.0000000000000000e+00 +9.9999999947350149e-01
1.5000000000000002e-01 -3.6506118995417872e-06 +0.0000000000000000e+00 +1.4999999994076926e-01 -4.8674364727014759e-05 +0.0000000000000000e+00 +9.9999999881540313e-01
2.0000000000000001e-01 -6.4899290485826484e-06 +0.0000000000000000e+00 +1.9999999985960368e-01 -6.4898203254648492e-05 +0.0000000000000000e+00 +9.9999999789411165e-01
2.5000000000000000e-01 -1.0140418788934722e-05 +0.0000000000000000e+00 +2.4999999972579462e-01 -8.1121235737071192e-05 +0.0000000000000000e+00 +9.9999999670967255e-01
2.9999999999999999e-01 -1.4602035945799649e-05 +0.0000000000000000e+00 +2.9999999952618611e-01 -9.7343267749194933e-05 +0.0000000000000000e+00 +9.9999999526214411e-01
3.4999999999999998e-01 -1.9874725694589077e-05 +0.0000000000000000e+00 +3.4999999924762537e-01 -1.1356410772452046e-04 +0.0000000000000000e+00 +9.9999999355159674e-01
3.9999999999999997e-01 -2.5958423703855507e-05 +0.0000000000000000e+00 +3.9999999887696347e-01 -1.2978356695518439e-04 +0.0000000000000000e+00 +9.9999999157811292e-01
4.4999999999999996e-01 -3.2853056278224104e-05 +0.0000000000000000e+00 +4.4999999840105592e-01 -1.4600145959195048e-04 +0.0000000000000000e+00 +9.9999998934178691e-01
4.9999999999999994e-01 -4.0558540501322668e-05 +0.0000000000000000e+00 +4.9999999780676319e-01 -1.6221760264414505e-04 +0.0000000000000000e+00 +9.9999998684272473e-01
5.4999999999999993e-01 -4.9074784378706983e-05 +0.0000000000000000e+00 +5.4999999708095137e-01 -1.7843181597953657e-04 +0.0000000000000000e+00 +9.9999998408104351e-01
5.9999999999999998e-01 -5.8401686980778760e-05 +0.0000000000000000e+00 +5.9999999621049271e-01 -1.9464392232415925e-04 +0.0000000000000000e+00 +9.9999998105687171e-01
6.5000000000000002e-01 -6.8539138585693338e-05 +0.0000000000000000e+00 +6.4999999518226603e-01 -2.1085374726208085e-04 +0.0000000000000000e+00 +9.9999997777034855e-01
7.0000000000000007e-01 -7.9487020822254395e-05 +0.0000000000000000e+00 +6.9999999398315749e-01 -2.2706111923511446e-04 +0.0000000000000000e+00 +9.9999997422162390e-01
7.5000000000000011e-01 -9.1245206812792855e-05 +0.0000000000000000e+00 +7.4999999260006101e-01 -2.4326586954247467e-04 +0.0000000000000000e+00 +9.9999997041085809e-01
8.0000000000000016e-01 -1.0381356131602719e-04 +0.0000000000000000e+00 +7.9999999101987873e-01 -2.5946783234037765e-04 +0.0000000000000000e+00 +9.9999996633822164e-01
8.5000000000000020e-01 -1.1719194086990234e-04 +0.0000000000000000e+00 +8.4999998922952158e-01 -2.7566684464158555e-04 +0.0000000000000000e+00 +9.9999996200389485e-01
9.0000000000000024e-01 -1.3138019393440448e-04 +0.0000000000000000e+00 +8.9999998721590979e-01 -2.9186274631489502e-04 +0.0000000000000000e+00 +9.9999995740806791e-01
9.5000000000000029e-01 -1.4637816103434874e-04 +0.0000000000000000e+00 +9.4999998496597327e-01 -3.0805538008456989e-04 +0.0000000000000000e+00 +9.9999995255094043e-01
1.0000000000000002e+00 -1.6218567490213729e-04 +0.0000000000000000e+00 +9.9999998246665223e-01 -3.2424459152971801e-04 +0.0000000000000000e+00 +9.9999994743272125e-01
1.0500000000000003e+00 -1.7880256061840853e-04 +0.0000000000000000e+00 +1.0499999797048976e+00 -3.4043022883446870e-04 +0.0000000000000000e+00 +9.9999994205362819e-01
1.1000000000000003e+00 -1.9622863568621423e-04 +0.0000000000000000e+00 +1.0999999766676711e+00 -3.5661214004677156e-04 +0.0000000000000000e+00 +9.9999993641388896e-01
1.1500000000000004e+00 -2.1446370994323308e-04 +0.0000000000000000e+00 +1.1499999733419464e+00 -3.7279017033767394e-04 +0.0000000000000000e+00 +9.9999993051374225e-01
1.2000000000000004e+00 -2.3350758540754843e-04 +0.0000000000000000e+00 +1.1999999697147092e+00 -3.8896416175235099e-04 +0.0000000000000000e+00 +9.9999992435343776e-01
1.2500000000000004e+00 -2.5336005612136054e-04 +0.0000000000000000e+00 +1.2499999657729584e+00 -4.0513395321034845e-04 +0.0000000000000000e+00 +9.9999991793323684e-01
1.3000000000000005e+00 -2.7402090799471228e-04 +0.0000000000000000e+00 +1.2999999615037057e+00 -4.2129938050587901e-04 +0.0000000000000000e+00 +9.9999991125341225e-01
1.3500000000000005e+00 -2.9548991864923097e-04 +0.0000000000000000e+00 +1.3499999568939771e+00 -4.3746027630817169e-04 +0.0000000000000000e+00 +9.9999990431424890e-01
1.4000000000000006e+00 -3.1776685726188911e-04 +0.0000000000000000e+00 +1.3999999519308131e+00 -4.5361647016187450e-04 +0.0000000000000000e+00 +9.9999989711604387e-01
1.4500000000000006e+00 -3.4085148440878645e-04 +0.0000000000000000e+00 +1.4499999466012692e+00 -4.6976778848751037e-04 +0.0000000000000000e+00 +9.9999988965910658e-01
1.5000000000000007e+00 -3.6474355190895625e-04 +0.0000000000000000e+00 +1.4999999408924169e+00 -4.8591405458198617e-04 +0.0000000000000000e+00 +9.9999988194375899e-01
1.5500000000000007e+00 -3.8944280266819834e-04 +0.0000000000000000e+00 +1.5499999347913440e+00 -5.0205508861915515e-04 +0.0000000000000000e+00 +9.9999987397033618e-01
1.6000000000000008e+00 -4.1494897052294147e-04 +0.0000000000000000e+00 +1.5999999282851551e+00 -5.1819070765043269e-04 +0.0000000000000000e+00 +9.9999986573918642e-01
1.6500000000000008e+00 -4.4126178008413821e-04 +0.0000000000000000e+00 +1.6499999213609731e+00 -5.3432072560546495e-04 +0.0000000000000000e+00 +9.9999985725067109e-01
1.7000000000000008e+00 -4.6838094658119403e-04 +0.0000000000000000e+00 +1.6999999140059390e+00 -5.5044495329285088e-04 +0.0000000000000000e+00 +9.9999984850516543e-01
1.7500000000000009e+00 -4.9630617570593425e-04 +0.0000000000000000e+00 +1.7499999062072129e+00 -5.6656319840091784e-04 +0.0000000000000000e+00 +9.9999983950305849e-01
1.8000000000000009e+00 -5.2503716345661088e-04 +0.0000000000000000e+00 +1.7999998979519749e+00 -5.8267526549854974e-04 +0.0000000000000000e+00 +9.9999983024475336e-01
1.8500000000000010e+00 -5.5457359598195242e-04 +0.0000000000000000e+00 +1.8499998892274252e+00 -5.9878095603606936e-04 +0.0000000000000000e+00 +9.9999982073066751e-01
1.9000000000000010e+00 -5.8491514942525860e-04 +0.0000000000000000e+00 +1.8999998800207858e+00 -6.1488006834617274e-04 +0.0000000000000000e+00 +9.9999981096123314e-01
1.9500000000000011e+00 -6.1606148976854397e-04 +0.0000000000000000e+00 +1.9499998703193002e+00 -6.3097239764491780e-04 +0.0000000000000000e+00 +9.9999980093689711e-01
2.0000000000000009e+00 -6.4801227267673157e-04 +0.0000000000000000e+00 +1.9999998601102349e+00 -6.4705773603276580e-04 +0.0000000000000000e+00 +9.9999979065812139e-01
2.0500000000000007e+00 -6.8076714334373541e-04 +0.0000000000000000e+00 +2.0499998493808795e+00 -6.6313587271588537e-04 +0.0000000000000000e+00 +9.9999978012538315e-01
2.1000000000000005e+00 -7.1432573639731870e-04 +0.0000000000000000e+00 +2.0999998381185487e+00 -6.7920659642940013e-04 +0.0000000000000000e+00 +9.9999976933917323e-01
2.1500000000000004e+00 -7.4868767594711463e-04 +0.0000000000000000e+00 +2.1499998263105811e+00 -6.9526969785972258e-04 +0.0000000000000000e+00 +9.9999975829999455e-01
2.2000000000000002e+00 -7.8385257569135323e-04 +0.0000000000000000e+00 +2.1999998139443409e+00 -7.1132496986420983e-04 +0.0000000000000000e+00 +9.9999974700836181e-01
2.2500000000000000e+00 -8.1982003902539269e-04 +0.0000000000000000e+00 +2.2499998010072186e+00 -7.2737220747052405e-04 +0.0000000000000000e+00 +9.9999973546480114e-01
2.2999999999999998e+00 -8.5658965915021775e-04 +0.0000000000000000e+00 +2.2999997874866311e+00 -7.4341120787594056e-04 +0.0000000000000000e+00 +9.9999972366985002e-01
2.3499999999999996e+00 -8.9416101918090185e-04 +0.0000000000000000e+00 +2.3499997733700226e+00 -7.5944177044660367e-04 +0.0000000000000000e+00 +9.9999971162405721e-01
2.3999999999999995e+00 -9.3253369225503079e-04 +0.0000000000000000e+00 +2.3999997586448654e+00 -7.7546369671673075e-04 +0.0000000000000000e+00 +9.9999969932798249e-01
2.4499999999999993e+00 -9.7170724164108554e-04 +0.0000000000000000e+00 +2.4499997432986591e+00 -7.9147679038776343e-04 +0.0000000000000000e+00 +9.9999968678219620e-01
2.4999999999999991e+00 -1.0116812208467811e-03 +0.0000000000000000e+00 +2.4999997273189329e+00 -8.0748085732746690e-04 +0.0000000000000000e+00 +9.9999967398727951e-01
2.5499999999999989e+00 -1.0524551737273592e-03 +0.0000000000000000e+00 +2.5499997106932448e+00 -8.2347570556897710e-04 +0.0000000000000000e+00 +9.9999966094382386e-01
2.5999999999999988e+00 -1.0940286345938316e-03 +0.0000000000000000e+00 +2.5999996934091829e+00 -8.3946114530979523e-04 +0.0000000000000000e+00 +9.9999964765243088e-01
2.6499999999999986e+00 -1.1364011283211725e-03 +0.0000000000000000e+00 +2.6499996754543655e+00 -8.5543698891073043e-04 +0.0000000000000000e+00 +9.9999963411371229e-01
2.6999999999999984e+00 -1.1795721704564561e-03 +0.0000000000000000e+00 +2.6999996568164422e+00 -8.7140305089478977e-04 +0.0000000000000000e+00 +9.9999962032828960e-01
2.7499999999999982e+00 -1.2235412673269378e-03 +0.0000000000000000e+00 +2.7499996374830933e+00 -8.8735914794601579e-04 +0.0000000000000000e+00 +9.9999960629679396e-01
2.7999999999999980e+00 -1.2683079161480758e-03 +0.0000000000000000e+00 +2.7999996174420310e+00 -9.0330509890827228e-04 +0.0000000000000000e+00 +9.9999959201986610e-01
2.8499999999999979e+00 -1.3138716051314910e-03 +0.0000000000000000e+00 +2.8499995966810001e+00 -9.1924072478397707e-04 +0.0000000000000000e+00 +9.9999957749815582e-01
2.8999999999999977e+00 -1.3602318135928614e-03 +0.0000000000000000e+00 +2.8999995751877781e+00 -9.3516584873278247e-04 +0.0000000000000000e+00 +9.9999956273232216e-01
2.9499999999999975e+00 -1.4073880120597500e-03 +0.0000000000000000e+00 +2.9499995529501750e+00 -9.5108029607020382e-04 +0.0000000000000000e+00 +9.9999954772303301e-01
2.9999999999999973e+00 -1.4553396623793627e-03 +0.0000000000000000e+00 +2.9999995299560349e+00 -9.6698389426619477e-04 +0.0000000000000000e+00 +9.9999953247096485e-01
3.0499999999999972e+00 -1.5040862178244438e-03 +0.0000000000000000e+00 +3.0499995061932363e+00 -9.8287647272892907e-04 +0.0000000000000000e+00 +9.9999951697680300e-01
3.0999999999999970e+00 -1.5536271231418345e-03 +0.0000000000000000e+00 +3.0999994816496921e+00 -9.9875786044130357e-04 +0.0000000000000000e+00 +9.9999950124124370e-01
3.1499999999999968e+00 -1.6039618144614053e-03 +0.0000000000000000e+00 +3.1499994563133495e+00 -1.0146278835984649e-03 +0.0000000000000000e+00 +9.9999948526499638e-01
3.1999999999999966e+00 -1.6550897191477294e-03 +0.0000000000000000e+00 +3.1999994301721926e+00 -1.0304863653934669e-03 +0.0000000000000000e+00 +9.9999946904878434e-01
3.2499999999999964e+00 -1.7070102556499907e-03 +0.0000000000000000e+00 +3.2499994032142410e+00 -1.0463331260177494e-03 +0.0000000000000000e+00 +9.9999945259334477e-01
3.2999999999999963e+00 -1.7597228333519151e-03 +0.0000000000000000e+00 +3.2999993754275523e+00 -1.0621679826616484e-03 +0.0000000000000000e+00 +9.9999943589942908e-01
3.3499999999999961e+00 -1.8132268524217287e-03 +0.0000000000000000e+00 +3.3499993468002218e+00 -1.0779907495149354e-03 +0.0000000000000000e+00 +9.9999941896780309e-01
3.3999999999999959e+00 -1.8675217036621442e-03 +0.0000000000000000e+00 +3.3999993173203835e+00 -1.0938012377673864e-03 +0.0000000000000000e+00 +9.9999940179924707e-01
3.4499999999999957e+00 -1.9226067683603756e-03 +0.0000000000000000e+00 +3.4499992869762108e+00 -1.1095992556093821e-03 +0.0000000000000000e+00 +9.9999938439455638e-01
3.4999999999999956e+00 -1.9784814181381840e-03 +0.0000000000000000e+00 +3.4999992557559172e+00 -1.1253846082325369e-03 +0.0000000000000000e+00 +9.9999936675454115e-01
3.5499999999999954e+00 -2.0351450148019556e-03 +0.0000000000000000e+00 +3.5499992236477569e+00 -1.1411570978303591e-03 +0.0000000000000000e+00 +9.9999934888002695e-01
3.5999999999999952e+00 -2.0925969101928139e-03 +0.0000000000000000e+00 +3.5999991906400259e+00 -1.1569165235989407e-03 +0.0000000000000000e+00 +9.9999933077185466e-01
3.6499999999999950e+00 -2.1508364460367663e-03 +0.0000000000000000e+00 +3.6499991567210626e+00 -1.1726626817376779e-03 +0.0000000000000000e+00 +9.9999931243088092e-01
3.6999999999999948e+00 -2.2098629537948885e-03 +0.0000000000000000e+00 +3.6999991218792485e+00 -1.1883953654500217e-03 +0.0000000000000000e+00 +9.9999929385797826e-01
3.7499999999999947e+00 -2.2696757545135463e-03 +0.0000000000000000e+00 +3.7499990861030095e+00 -1.2041143649442585e-03 +0.0000000000000000e+00 +9.9999927505403519e-01
3.7999999999999945e+00 -2.3302741586746570e-03 +0.0000000000000000e+00 +3.7999990493808165e+00 -1.2198194674343222e-03 +0.0000000000000000e+00 +9.9999925601995654e-01
3.8499999999999943e+00 -2.3916574660459941e-03 +0.0000000000000000e+00 +3.8499990117011849e+00 -1.2355104571406355e-03 +0.0000000000000000e+00 +9.9999923675666369e-01
3.8999999999999941e+00 -2.4538249655315322e-03 +0.0000000000000000e+00 +3.8999989730526781e+00 -1.2511871152909824e-03 +0.0000000000000000e+00 +9.9999921726509478e-01
3.9499999999999940e+00 -2.5167759350218375e-03 +0.0000000000000000e+00 +3.9499989334239056e+00 -1.2668492201214116e-03 +0.0000000000000000e+00 +9.9999919754620459e-01
3.9999999999999938e+00 -2.5805096412445049e-03 +0.0000000000000000e+00 +3.9999988928035259e+00 -1.2824965468771694e-03 +0.0000000000000000e+00 +9.9999917760096524e-01
4.0499999999999936e+00 -2.6450253396174228e-03 +0.0000000000000000e+00 +4.0499988511802458e+00 -1.2981288681473606e-03 +0.0000000000000000e+00 +9.9999915743036571e-01
4.0999999999999934e+00 -2.7103222741910737e-03 +0.0000000000000000e+00 +4.0999988085428232e+00 -1.3137459575367260e-03 +0.0000000000000000e+00 +9.9999913703540699e-01
4.1499999999999932e+00 -2.7763996778077931e-03 +0.0000000000000000e+00 +4.1499987648800643e+00 -1.3293475933371561e-03 +0.0000000000000000e+00 +9.9999911641709749e-01
4.1999999999999931e+00 -2.8432567723500370e-03 +0.0000000000000000e+00 +4.1999987201808269e+00 -1.3449335588616477e-03 +0.0000000000000000e+00 +9.9999909557645195e-01
4.2499999999999929e+00 -2.9108927689914434e-03 +0.0000000000000000e+00 +4.2499986744340204e+00 -1.3605036424444925e-03 +0.0000000000000000e+00 +9.9999907451449099e-01
4.2999999999999927e+00 -2.9793068684479014e-03 +0.0000000000000000e+00 +4.2999986276286046e+00 -1.3760576374414698e-03 +0.0000000000000000e+00 +9.9999905323224081e-01
4.3499999999999925e+00 -3.0484982612286296e-03 +0.0000000000000000e+00 +4.3499985797535903e+00 -1.3915953422300421e-03 +0.0000000000000000e+00 +9.9999903173073279e-01
4.3999999999999924e+00 -3.1184661278872670e-03 +0.0000000000000000e+00 +4.3999985307980412e+00 -1.4071165602095531e-03 +0.0000000000000000e+00 +9.9999901001100278e-01
4.4499999999999922e+00 -3.1892096392729702e-03 +0.0000000000000000e+00 +4.4499984807510709e+00 -1.4226210998014304e-03 +0.0000000000000000e+00 +9.9999898807409104e-01
4.4999999999999920e+00 -3.2607279567815235e-03 +0.0000000000000000e+00 +4.4999984296018471e+00 -1.4381087744493877e-03 +0.0000000000000000e+00 +9.9999896592104165e-01
4.5499999999999918e+00 -3.3330202326064592e-03 +0.0000000000000000e+00 +4.5499983773395893e+00 -1.4535794026196336e-03 +0.0000000000000000e+00 +9.9999894355290198e-01
4.5999999999999917e+00 -3.4060856099901856e-03 +0.0000000000000000e+00 +4.5999983239535700e+00 -1.4690328078010807e-03 +0.0000000000000000e+00 +9.9999892097072252e-01
4.6499999999999915e+00 -3.4799232234751297e-03 +0.0000000000000000e+00 +4.6499982694331123e+00 -1.4844688185055581e-03 +0.0000000000000000e+00 +9.9999889817555632e-01
4.6999999999999913e+00 -3.5545321991548862e-03 +0.0000000000000000e+00 +4.6999982137675937e+00 -1.4998872682680264e-03 +0.0000000000000000e+00 +9.9999887516845853e-01
4.7499999999999911e+00 -3.6299116549253817e-03 +0.0000000000000000e+00 +4.7499981569464440e+00 -1.5152879956467948e-03 +0.0000000000000000e+00 +9.9999885195048599e-01
4.7999999999999909e+00 -3.7060607007360462e-03 +0.0000000000000000e+00 +4.7999980989591453e+00 -1.5306708442237415e-03 +0.0000000000000000e+00 +9.9999882852269706e-01
4.8499999999999908e+00 -3.7829784388409976e-03 +0.0000000000000000e+00 +4.8499980397952340e+00 -1.5460356626045360e-03 +0.0000000000000000e+00 +9.9999880488615078e-01
4.8999999999999906e+00 -3.8606639640502362e-03 +0.0000000000000000e+00 +4.8999979794442989e+00 -1.5613823044188634e-03 +0.0000000000000000e+00 +9.9999878104190676e-01
4.9499999999999904e+00 -3.9391163639808519e-03 +0.0000000000000000e+00 +4.9499979178959812e+00 -1.5767106283206510e-03 +0.0000000000000000e+00 +9.9999875699102470e-01
4.9999999999999902e+00 -4.0183347193082425e-03 +0.0000000000000000e+00 +4.9999978551399753e+00 -1.5920204979882977e-03 +0.0000000000000000e+00 +9.9999873273456397e-01
5.0499999999999901e+00 -4.0983181040161083e-03 +0.0000000000000000e+00 +5.0499977911660290e+00 -1.6073117819769465e-03 +0.0000000000000000e+00 +9.9999870827358339e-01
5.0999999999999899e+00 -4.1790655856070022e-03 +0.0000000000000000e+00 +5.0999977259639424e+00 -1.6225843520908880e-03 +0.0000000000000000e+00 +9.9999868360914368e-01
5.1499999999999897e+00 -4.2605762252166841e-03 +0.0000000000000000e+00 +5.1499976595235699e+00 -1.6378380817554297e-03 +0.0000000000000000e+00 +9.9999865874230942e-01
5.1999999999999895e+00 -4.3428490776889969e-03 +0.0000000000000000e+00 +5.1999975918348182e+00 -1.6530728458684306e-03 +0.0000000000000000e+00 +9.9999863367414965e-01
5.2499999999999893e+00 -4.4258831916494787e-03 +0.0000000000000000e+00 +5.2499975228876474e+00 -1.6682885207998214e-03 +0.0000000000000000e+00 +9.9999860840573740e-01
5.2999999999999892e+00 -4.5096776095789560e-03 +0.0000000000000000e+00 +5.2999974526720726e+00 -1.6834849843911106e-03 +0.0000000000000000e+00 +9.9999858293814958e-01
5.3499999999999890e+00 -4.5942313678871095e-03 +0.0000000000000000e+00 +5.3499973811781611e+00 -1.6986621159548784e-03 +0.0000000000000000e+00 +9.9999855727246711e-01
5.3999999999999888e+00 -4.6795434969860161e-03 +0.0000000000000000e+00 +5.3999973083960358e+00 -1.7138197962742591e-03 +0.0000000000000000e+00 +9.9999853140977446e-01
5.4499999999999886e+00 -4.7656130213636610e-03 +0.0000000000000000e+00 +5.4499972343158731e+00 -1.7289579076024087e-03 +0.0000000000000000e+00 +9.9999850535115975e-01
5.4999999999999885e+00 -4.8524389596574270e-03 +0.0000000000000000e+00 +5.4999971589279042e+00 -1.7440763336619620e-03 +0.0000000000000000e+00 +9.9999847909771444e-01
5.5499999999999883e+00 -4.9400203247275537e-03 +0.0000000000000000e+00 +5.5499970822224149e+00 -1.7591749596444761e-03 +0.0000000000000000e+00 +9.9999845265053333e-01
5.5999999999999881e+00 -5.0283561237305695e-03 +0.0000000000000000e+00 +5.5999970041897464e+00 -1.7742536722098624e-03 +0.0000000000000000e+00 +9.9999842601071443e-01
5.6499999999999879e+00 -5.1174453581926968e-03 +0.0000000000000000e+00 +5.6499969248202939e+00 -1.7893123594858050e-03 +0.0000000000000000e+00 +9.9999839917935862e-01
5.6999999999999877e+00 -5.2072870240832221e-03 +0.0000000000000000e+00 +5.6999968441045086e+00 -1.8043509110671680e-03 +0.0000000000000000e+00 +9.9999837215756981e-01
5.7499999999999876e+00 -5.2978801118878432e-03 +0.0000000000000000e+00 +5.7499967620328958e+00 -1.8193692180153906e-03 +0.0000000000000000e+00 +9.9999834494645456e-01
5.7999999999999874e+00 -5.3892236066819810e-03 +0.0000000000000000e+00 +5.7999966785960169e+00 -1.8343671728578684e-03 +0.0000000000000000e+00 +9.9999831754712210e-01
5.8499999999999872e+00 -5.4813164882040622e-03 +0.0000000000000000e+00 +5.8499965937844891e+00 -1.8493446695873250e-03 +0.0000000000000000e+00 +9.9999828996068429e-01
5.8999999999999870e+00 -5.5741577309287695e-03 +0.0000000000000000e+00 +5.8999965075889849e+00 -1.8643016036611702e-03 +0.0000000000000000e+00 +9.9999826218825516e-01
